# omega0=1.00, alpha=0.20
# theta0=-0.80, theta_dot0=0.12
# t_start=0.00, t_end=250.00, h=0.01
#   t          x(t)                 v(t)       
0.00  -8.010000000000000e-01  1.234000000000000e-01
1.163552834662887e-01 -7.759719282621963e-01 3.057172301678939e-01
2.327105669325774e-01 -7.301485407049736e-01 4.804996326730197e-01
3.490658503988658e-01 -6.645284605397325e-01 6.456394014312791e-01
4.654211338651543e-01 -5.803603239659121e-01 7.989449272656608e-01
5.817764173314427e-01 -4.791521897093412e-01 9.381558460949433e-01
6.981317007977311e-01 -3.626759128068262e-01 1.061014942719898e+00
8.144869842640196e-01 -2.329599201410519e-01 1.165394271229078e+00
9.308422677303080e-01 -9.226477919539823e-02 1.249461434078368e+00
1.047197551196597e+00 5.696171553646574e-02 1.311860201636860e+00
1.163552834662887e+00 2.121496724188165e-01 1.351871348307814e+00
1.279908118129176e+00 3.706880754834707e-01 1.369518741379433e+00
1.396263401595466e+00 5.300135737269694e-01 1.365594447832698e+00
1.512618685061755e+00 6.876969268301167e-01 1.341593434887410e+00
1.628973968528045e+00 8.415170080151713e-01 1.299568299345639e+00
1.745329251994334e+00 9.895144968219712e-01 1.241930882119794e+00
1.861684535460624e+00 1.130021082261549e+00 1.171235666489587e+00
1.978039818926913e+00 1.261664049097145e+00 1.089978198647943e+00
2.094395102393201e+00 1.383349513567718e+00 1.000432721012864e+00
2.210750385859488e+00 1.494229689256701e+00 9.045410198704587e-01
2.327105669325776e+00 1.593660279876064e+00 8.038532110909645e-01
2.443460952792063e+00 1.681153681996358e+00 6.995132980468980e-01
2.559816236258350e+00 1.756332585085636e+00 5.922784801201780e-01
2.676171519724638e+00 1.818887218716082e+00 4.825607120360577e-01
2.792526803190925e+00 1.868538242419773e+00 3.704807104856258e-01
2.908882086657212e+00 1.905006285325920e+00 2.559273093106778e-01
3.025237370123500e+00 1.927988485096598e+00 1.386179364028039e-01
3.141592653589787e+00 1.937142037414409e+00 1.815855108064936e-02
3.257947937056074e+00 1.932074699409732e+00 -1.058965524846238e-01
3.374303220522362e+00 1.912342331748103e+00 -2.339831416050260e-01
3.490658503988649e+00 1.877453851867398e+00 -3.664607220758795e-01
3.607013787454936e+00 1.826884338873211e+00 -5.035382026689887e-01
3.723369070921223e+00 1.760097397773369e+00 -6.451886892433201e-01
3.839724354387511e+00 1.676578143174061e+00 -7.910521629448611e-01
3.956079637853798e+00 1.575878134366106e+00 -9.403281017983696e-01
4.072434921320085e+00 1.457673056319715e+00 -1.091665627199957e+00
4.188790204786373e+00 1.321832619429858e+00 -1.243066693055563e+00
4.305145488252660e+00 1.168499793777520e+00 -1.391827457594643e+00
4.421500771718947e+00 9.981730259311382e-01 -1.534551863596190e+00
4.537856055185235e+00 8.117808421466420e-01 -1.667274957131025e+00
4.654211338651522e+00 6.107342061322246e-01 -1.785725302534758e+00
4.770566622117809e+00 3.969398689578891e-01 -1.885730709996967e+00
4.886921905584097e+00 1.727597515783838e-01 -1.963729865405613e+00
5.003277189050384e+00 -5.909146170121873e-02 -2.017305134589478e+00
5.119632472516671e+00 -2.957063393210382e-01 -2.045619453465920e+00
5.235987755982959e+00 -5.341843310179254e-01 -2.049644213875293e+00
5.352343039449246e+00 -7.718422467178155e-01 -2.032112937354032e+00
5.468698322915533e+00 -1.006403535760173e+00 -1.997211705835714e+00
5.585053606381821e+00 -1.236139990667507e+00 -1.950089294336582e+00
5.701408889848108e+00 -1.459951766739898e+00 -1.896307567842590e+00
5.817764173314395e+00 -1.677385631662738e+00 -1.841345594403378e+00
5.934119456780683e+00 -1.888602453671529e+00 -1.790231073482117e+00
6.050474740246970e+00 -2.094310588596175e+00 -1.747322846189877e+00
6.166830023713257e+00 -2.295682078853737e+00 -1.716227660366905e+00
6.283185307179544e+00 -2.494265105297618e+00 -1.699811384954313e+00
6.399540590645832e+00 -2.691900977518469e+00 -1.700258128416410e+00
6.515895874112119e+00 -2.890648667335620e+00 -1.719134180803251e+00
6.632251157578406e+00 -3.092715303768737e+00 -1.757421324979172e+00
6.748606441044694e+00 -3.300387400587919e+00 -1.815492230262723e+00
6.864961724510981e+00 -3.515954878977417e+00 -1.893008751498168e+00
6.981317007977268e+00 -3.741618272122657e+00 -1.988734161026690e+00
7.097672291443556e+00 -3.979369332409648e+00 -2.100266926626298e+00
7.214027574909843e+00 -4.230837647835029e+00 -2.223731724848807e+00
7.330382858376130e+00 -4.497102358689938e+00 -2.353505757257867e+00
7.446738141842418e+00 -4.778480109667877e+00 -2.482109578270177e+00
7.563093425308705e+00 -5.074317920489641e+00 -2.600429800888700e+00
7.679448708774992e+00 -5.382838985593887e+00 -2.698425538361301e+00
7.795803992241280e+00 -5.701101594858120e+00 -2.766357441579152e+00
7.912159275707567e+00 -6.025124151669024e+00 -2.796363150910175e+00
8.028514559173855e+00 -6.350194547349285e+00 -2.783966806878473e+00
8.144869842640142e+00 -6.671326140485492e+00 -2.729008008059603e+00
8.261225126106430e+00 -6.983768966211820e+00 -2.635628209168982e+00
8.377580409572717e+00 -7.283462597623660e+00 -2.511315794376519e+00
8.493935693039004e+00 -7.567339584647691e+00 -2.365374613270702e+00
8.610290976505292e+00 -7.833442370035882e+00 -2.207333774470632e+00
8.726646259971579e+00 -8.080872951562796e+00 -2.045713871442548e+00
8.843001543437866e+00 -8.309629540083852e+00 -1.887327437439180e+00
8.959356826904154e+00 -8.520391788815331e+00 -1.737075112592069e+00
9.075712110370441e+00 -8.714303985978397e+00 -1.598085446290146e+00
9.192067393836728e+00 -8.892786261899371e+00 -1.472031084648347e+00
9.308422677303016e+00 -9.057386375215311e+00 -1.359493117367379e+00
9.424777960769303e+00 -9.209672763963352e+00 -1.260297314629069e+00
9.541133244235590e+00 -9.351163291327847e+00 -1.173788540237637e+00
9.657488527701878e+00 -9.483281914663079e+00 -1.099036680094632e+00
9.773843811168165e+00 -9.607335640115407e+00 -1.034981201866371e+00
9.890199094634452e+00 -9.724505309829285e+00 -9.805265083123471e-01
1.000655437810074e+01 -9.835845232584768e+00 -9.346005582189220e-01
1.012290966156703e+01 -9.942288029128235e+00 -8.961874755234512e-01
1.023926494503331e+01 -1.004465217681166e+01 -8.643425457879942e-01
1.035562022849960e+01 -1.014365058539354e+01 -8.381958184307202e-01
1.047197551196589e+01 -1.023989915149646e+01 -8.169487524602320e-01
1.058833079543218e+01 -1.033392467333002e+01 -7.998669994243062e-01
1.070468607889846e+01 -1.042617180788761e+01 -7.862714534135796e-01
1.082104136236475e+01 -1.051700895935985e+01 -7.755290306714032e-01
1.093739664583104e+01 -1.060673312964927e+01 -7.670441891650706e-01
1.105375192929733e+01 -1.069557386049708e+01 -7.602518923863411e-01
1.117010721276361e+01 -1.078369646553064e+01 -7.546125071016472e-01
1.128646249622990e+01 -1.087120479763716e+01 -7.496089604095816e-01
1.140281777969619e+01 -1.095814382645978e+01 -7.447463373751424e-01
1.151917306316247e+01 -1.104450231361114e+01 -7.395539568951379e-01
1.163552834662876e+01 -1.113021586876579e+01 -7.335898098847203e-01
1.175188363009505e+01 -1.121517064680037e+01 -7.264470789294427e-01
1.186823891356134e+01 -1.129920790360656e+01 -7.177622892442941e-01
1.198459419702762e+01 -1.138212956636651e+01 -7.072244813864154e-01
1.210094948049391e+01 -1.146370489519386e+01 -6.945846658936066e-01
1.221730476396020e+01 -1.154367822169956e+01 -6.796647395497813e-01
1.233366004742649e+01 -1.162177765312596e+01 -6.623650301426870e-01
1.245001533089277e+01 -1.169772453677706e+01 -6.426697019551317e-01
1.256637061435906e+01 -1.177124339776776e+01 -6.206493977087639e-01
1.268272589782535e+01 -1.184207200211275e+01 -5.964607020257607e-01
1.279908118129164e+01 -1.190997116328352e+01 -5.703422635136999e-01
1.291543646475792e+01 -1.197473390682683e+01 -5.426076769345871e-01
1.303179174822421e+01 -1.203619363401129e+01 -5.136354714894515e-01
1.314814703169050e+01 -1.209423097775684e+01 -4.838567480777956e-01
1.326450231515678e+01 -1.214877911553797e+01 -4.537411384486358e-01
1.338085759862307e+01 -1.219982738621430e+01 -4.237818149423832e-01
1.349721288208936e+01 -1.224742314231728e+01 -3.944802650236786e-01
1.361356816555565e+01 -1.229167184872651e+01 -3.663314731926359e-01
1.372992344902193e+01 -1.233273550730579e+01 -3.398100427344246e-01
1.384627873248822e+01 -1.237082954162424e+01 -3.153576610747365e-01
1.396263401595451e+01 -1.240621831527151e+01 -2.933721830889692e-01
1.407898929942080e+01 -1.243920948223670e+01 -2.741984900292524e-01
1.419534458288708e+01 -1.247014738036851e+01 -2.581211859746947e-01
1.431169986635337e+01 -1.249940568173249e+01 -2.453591220594291e-01
1.442805514981966e+01 -1.252737950952289e+01 -2.360616904083745e-01
1.454441043328594e+01 -1.255447722260707e+01 -2.303068013359049e-01
1.466076571675223e+01 -1.258111205783696e+01 -2.281004442922600e-01
1.477712100021852e+01 -1.260769380845115e+01 -2.293777303973760e-01
1.489347628368481e+01 -1.263462070515850e+01 -2.340053177136627e-01
1.500983156715109e+01 -1.266227165530693e+01 -2.417851258926404e-01
1.512618685061738e+01 -1.269099898496445e+01 -2.524592513812670e-01
1.524254213408367e+01 -1.272112181851217e+01 -2.657159954340478e-01
1.535889741754996e+01 -1.275292021993619e+01 -2.811969126031417e-01
1.547525270101624e+01 -1.278663020864530e+01 -2.985047754229319e-01
1.559160798448253e+01 -1.282243974939951e+01 -3.172123304651216e-01
1.570796326794882e+01 -1.286048579978055e+01 -3.368716914665659e-01
1.582431855141511e+01 -1.290085247856883e+01 -3.570241777279905e-01
1.594067383488139e+01 -1.294357039360768e+01 -3.772103629666151e-01
1.605702911834769e+01 -1.298861713782642e+01 -3.969800555948501e-01
1.617338440181399e+01 -1.303591892725383e+01 -4.159018919579056e-01
1.628973968528030e+01 -1.308535331604171e+01 -4.335721964555340e-01
1.640609496874660e+01 -1.313675288253362e+01 -4.496227538785229e-01
1.652245025221291e+01 -1.318990973983802e+01 -4.637271557441361e-01
1.663880553567921e+01 -1.324458068734861e+01 -4.756054274741389e-01
1.675516081914552e+01 -1.330049278956494e+01 -4.850267169122381e-01
1.687151610261182e+01 -1.335734914852949e+01 -4.918099227927701e-01
1.698787138607813e+01 -1.341483462862627e+01 -4.958222563012198e-01
1.710422666954443e+01 -1.347262129867412e+01 -4.969758488474250e-01
1.722058195301074e+01 -1.353037337612020e+01 -4.952226323707091e-01
1.733693723647704e+01 -1.358775149021934e+01 -4.905478133616271e-01
1.745329251994335e+01 -1.364441612268170e+01 -4.829623292934229e-01
1.756964780340966e+01 -1.370003013186052e+01 -4.724947111551876e-01
1.768600308687596e+01 -1.375426031626671e+01 -4.591827775738123e-01
1.780235837034227e+01 -1.380677802134219e+01 -4.430655581349294e-01
1.791871365380857e+01 -1.385725883691866e+01 -4.241757928035456e-01
1.803506893727488e+01 -1.390538146947686e+01 -4.025332896163800e-01
1.815142422074118e+01 -1.395082590211753e+01 -3.781393534271995e-01
1.826777950420749e+01 -1.399327097603249e+01 -3.509724330902589e-01
1.838413478767379e+01 -1.403239154111751e+01 -3.209850801466052e-01
1.850049007114010e+01 -1.406785533180136e+01 -2.881022739001851e-01
1.861684535460640e+01 -1.409931972925038e+01 -2.522211487409022e-01
1.873320063807271e+01 -1.412642857515750e+01 -2.132121608636180e-01
1.884955592153901e+01 -1.414880920769769e+01 -1.709217528365843e-01
1.896591120500532e+01 -1.416606989918132e+01 -1.251766143036422e-01
1.908226648847162e+01 -1.417779788948017e+01 -7.578969290213576e-02
1.919862177193793e+01 -1.418355823108561e+01 -2.256817736736310e-02
1.931497705540423e+01 -1.418289369177230e+01 3.467625114204462e-02
1.943133233887054e+01 -1.417532599950348e+01 9.611453251132600e-02
1.954768762233684e+01 -1.416035876027360e+01 1.618842857691254e-01
1.966404290580315e+01 -1.413748242974428e+01 2.320703789683775e-01
1.978039818926945e+01 -1.410618176723735e+01 3.066816395351101e-01
1.989675347273576e+01 -1.406594623465390e+01 3.856235168561289e-01
2.001310875620206e+01 -1.401628380560909e+01 4.686668747734490e-01
2.012946403966837e+01 -1.395673859617832e+01 5.554137108398164e-01
2.024581932313467e+01 -1.388691258470442e+01 6.452615371259496e-01
2.036217460660098e+01 -1.380649141467030e+01 7.373694455607196e-01
2.047852989006728e+01 -1.371527383277069e+01 8.306304693389637e-01
2.059488517353359e+01 -1.361320367866137e+01 9.236565461801310e-01
2.071124045699989e+01 -1.350040252228212e+01 1.014783786993270e+00
2.082759574046620e+01 -1.337720010837309e+01 1.102106221329113e+00
2.094395102393250e+01 -1.324415886929480e+01 1.183544938816725e+00
2.106030630739881e+01 -1.310208815059969e+01 1.256955859775494e+00
2.117666159086511e+01 -1.295204376293725e+01 1.320273010089092e+00
2.129301687433142e+01 -1.279530931034439e+01 1.371675837401402e+00
2.140937215779772e+01 -1.263335758147200e+01 1.409760661077602e+00
2.152572744126403e+01 -1.246779298280944e+01 1.433690577764608e+00
2.164208272473033e+01 -1.230027906414577e+01 1.443297789892007e+00
2.175843800819664e+01 -1.213245790712828e+01 1.439118750917576e+00
2.187479329166294e+01 -1.196586976344133e+01 1.422354698193627e+00
2.199114857512925e+01 -1.180188134871102e+01 1.394764696969809e+00
2.210750385859555e+01 -1.164162960137635e+01 1.358510828578158e+00
2.222385914206186e+01 -1.148598496433254e+01 1.315982061039668e+00
2.234021442552816e+01 -1.133553509348020e+01 1.269623355413174e+00
2.245656970899447e+01 -1.119058709500687e+01 1.221790872738655e+00
2.257292499246077e+01 -1.105118445597022e+01 1.174645473604172e+00
2.268928027592708e+01 -1.091713393520975e+01 1.130087935715389e+00
2.280563555939338e+01 -1.078803770517545e+01 1.089732487059997e+00
2.292199084285969e+01 -1.066332669513891e+01 1.054911183438497e+00
2.303834612632599e+01 -1.054229206434477e+01 1.026700167854495e+00
2.315470140979230e+01 -1.042411276927067e+01 1.005959210277335e+00
2.327105669325860e+01 -1.030787811633600e+01 9.933772950013664e-01
2.338741197672491e+01 -1.019260493592193e+01 9.895186948989328e-01
2.350376726019121e+01 -1.007724956989935e+01 9.948654753979035e-01
2.362012254365752e+01 -9.960715269354145e+00 1.009853449558190e+00
2.373647782712382e+01 -9.841855908469359e+00 1.034899155782397e+00
2.385283311059013e+01 -9.719477197472299e+00 1.070415437584481e+00
2.396918839405643e+01 -9.592336883656840e+00 1.116812704454955e+00
2.408554367752274e+01 -9.459145820112154e+00 1.174482016628714e+00
2.420189896098904e+01 -9.318572300434115e+00 1.243754904324309e+00
2.431825424445535e+01 -9.169252724294127e+00 1.324833585908528e+00
2.443460952792165e+01 -9.009812446192827e+00 1.417684541376756e+00
2.455096481138796e+01 -8.838901452768955e+00 1.521889221768907e+00
2.466732009485427e+01 -8.655250047733681e+00 1.636449629679988e+00
2.478367537832057e+01 -8.457749510843822e+00 1.759555778057731e+00
2.490003066178688e+01 -8.245560984426721e+00 1.888338865974028e+00
2.501638594525318e+01 -8.018251679125651e+00 2.018659134218738e+00
2.513274122871949e+01 -7.775950070244563e+00 2.145007057039664e+00
2.524909651218579e+01 -7.519501139432566e+00 2.260618989113940e+00
2.536545179565210e+01 -7.250590893191729e+00 2.357902574102745e+00
2.548180707911840e+01 -6.971801056381861e+00 2.429209792097467e+00
2.559816236258471e+01 -6.686556676661363e+00 2.467879700971923e+00
2.571451764605101e+01 -6.398946734119395e+00 2.469331441817368e+00
2.583087292951732e+01 -6.113429655122843e+00 2.431895800249583e+00
2.594722821298362e+01 -5.834471387100180e+00 2.357107322118279e+00
2.606358349644993e+01 -5.566187116601411e+00 2.249351256342782e+00
2.617993877991623e+01 -5.312056602943388e+00 2.114989246092177e+00
2.629629406338254e+01 -5.074758024425329e+00 1.961250818557816e+00
2.641264934684884e+01 -4.856129125287623e+00 1.795199593219588e+00
2.652900463031515e+01 -4.657233472554876e+00 1.622983325632735e+00
2.664535991378145e+01 -4.478493581767847e+00 1.449434584559335e+00
2.676171519724776e+01 -4.319851944177427e+00 1.277976665757288e+00
2.687807048071406e+01 -4.180929925560184e+00 1.110736480992324e+00
2.699442576418037e+01 -4.061166465447323e+00 9.487636357978088e-01
2.711078104764667e+01 -3.959928977848017e+00 7.922789275875886e-01
2.722713633111298e+01 -3.876596027108235e+00 6.409055295172095e-01
2.734349161457928e+01 -3.810615263798681e+00 4.938610605874659e-01
2.745984689804559e+01 -3.761541596024589e+00 3.501053365370241e-01
2.757620218151189e+01 -3.729060579765797e+00 2.084478204093673e-01
2.769255746497820e+01 -3.713001263790413e+00 6.762297021111024e-02
2.780891274844450e+01 -3.713341674692227e+00 -7.365698762126094e-02
2.792526803191081e+01 -3.730209008318474e+00 -2.166622617786065e-01
2.804162331537711e+01 -3.763875490846222e+00 -3.626093126476101e-01
2.815797859884342e+01 -3.814749789604468e+00 -5.126189811663256e-01
2.827433388230972e+01 -3.883362761928804e+00 -6.676594308115749e-01
2.839068916577603e+01 -3.970345211121968e+00 -8.284642069796265e-01
2.850704444924233e+01 -4.076394207665869e+00 -9.954162148755223e-01
2.862339973270864e+01 -4.202223578885137e+00 -1.168390865824255e+00
2.873975501617494e+01 -4.348493704075401e+00 -1.346557968976727e+00
2.885611029964125e+01 -4.515716364124414e+00 -1.528154561442929e+00
2.897246558310755e+01 -4.704132943994066e+00 -1.710261756438541e+00
2.908882086657386e+01 -4.913569739136248e+00 -1.888647211219010e+00
2.920517615004016e+01 -5.143283044996664e+00 -2.057764176409100e+00
2.932153143350647e+01 -5.391818361995533e+00 -2.211012015375510e+00
2.943788671697277e+01 -5.656919259728882e+00 -2.341337284809489e+00
2.955424200043908e+01 -5.935526285310911e+00 -2.442168940072425e+00
2.967059728390538e+01 -6.223897881338503e+00 -2.508543760857570e+00
2.978695256737169e+01 -6.517860259355356e+00 -2.538143169846057e+00
2.990330785083799e+01 -6.813156792698029e+00 -2.531916661873847e+00
3.001966313430430e+01 -7.105834165422719e+00 -2.494069201625494e+00
3.013601841777060e+01 -7.392588728436482e+00 -2.431410006257170e+00
3.025237370123691e+01 -7.671009802498058e+00 -2.352282776149803e+00
3.036872898470321e+01 -7.939689997661909e+00 -2.265404805169623e+00
3.048508426816952e+01 -8.198209522567511e+00 -2.178899401534630e+00
3.060143955163582e+01 -8.447027066343285e+00 -2.099669268043123e+00
3.071779483510213e+01 -8.687318401018963e+00 -2.033115717437863e+00
3.083415011856843e+01 -8.920798490441982e+00 -1.983117422721421e+00
3.095050540203474e+01 -9.149550599738561e+00 -1.952152865021724e+00
3.106686068550104e+01 -9.375872880770343e+00 -1.941463432256366e+00
3.118321596896735e+01 -9.602142632924329e+00 -1.951184909987308e+00
3.129957125243365e+01 -9.830691963269166e+00 -1.980407905739602e+00
3.141592653589996e+01 -1.006368571160282e+01 -2.027156871847225e+00
3.153228181936626e+01 -1.030299285400402e+01 -2.088303862700047e+00
3.164863710283257e+01 -1.055004602185270e+01 -2.159459972666938e+00
3.176499238629888e+01 -1.080569038489673e+01 -2.234915045912642e+00
3.188134766976518e+01 -1.107003277643740e+01 -2.307718789450592e+00
3.199770295323149e+01 -1.134231323292869e+01 -2.369999443974709e+00
3.211405823669779e+01 -1.162083068381311e+01 -2.413580264094707e+00
3.223041352016409e+01 -1.190295698769445e+01 -2.430867590358267e+00
3.234676880363040e+01 -1.218526353350511e+01 -2.415862690564184e+00
3.246312408709670e+01 -1.246376085433548e+01 -2.365045455383265e+00
3.257947937056301e+01 -1.273422027262050e+01 -2.277861054120944e+00
3.269583465402931e+01 -1.299252032775561e+01 -2.156646674799483e+00
3.281218993749562e+01 -1.323495243842180e+01 -2.006025294678396e+00
3.292854522096192e+01 -1.345843425216707e+01 -1.831968977670587e+00
3.304490050442823e+01 -1.366060821015421e+01 -1.640808025756309e+00
3.316125578789453e+01 -1.383983337073323e+01 -1.438417096826285e+00
3.327761107136084e+01 -1.399509912076203e+01 -1.229695627369582e+00
3.339396635482714e+01 -1.412589617645478e+01 -1.018346434139968e+00
3.351032163829345e+01 -1.423207612288541e+01 -8.068858884604176e-01
3.362667692175975e+01 -1.431372132302334e+01 -5.967975780359404e-01
3.374303220522606e+01 -1.437103723337937e+01 -3.887529743021601e-01
3.385938748869236e+01 -1.440427167084998e+01 -1.828476617702119e-01
3.397574277215867e+01 -1.441366108027450e+01 2.117342858321384e-02
3.409209805562497e+01 -1.439940191638308e+01 2.237097508136884e-01
